ID, MSE, PSNR, SSIM, LPIPS
0, 0.01347657, 18.70420654, 0.78527230, 0.23620701 
1, 0.01374025, 18.62005221, 0.78199983, 0.22741845 
2, 0.01422418, 18.46972760, 0.78008759, 0.23576176 
3, 0.01485162, 18.28226268, 0.77673590, 0.23183766 
4, 0.01562619, 18.06146841, 0.77574396, 0.22528750 
5, 0.01618526, 17.90880285, 0.77136344, 0.22882634 
6, 0.01665579, 17.78434674, 0.76982963, 0.22960350 
7, 0.01676341, 17.75637740, 0.77143943, 0.22805583 
8, 0.01713063, 17.66226757, 0.77128780, 0.23051274 
9, 0.01751537, 17.56580715, 0.77427667, 0.22215916 
10, 0.01789436, 17.47283711, 0.77525890, 0.22090572 
11, 0.01774475, 17.50930120, 0.78058624, 0.21430483 
12, 0.01764866, 17.53288272, 0.78227168, 0.21707706 
13, 0.01703416, 17.68679183, 0.78799778, 0.20189296 
14, 0.01638636, 17.85517609, 0.79307556, 0.19759656 
15, 0.01565632, 18.05310249, 0.79804814, 0.20255075 
16, 0.01539429, 18.12640468, 0.80332488, 0.19838634 
17, 0.01548263, 18.10155222, 0.80504775, 0.19445667 
18, 0.01547163, 18.10463909, 0.80895317, 0.18419665 
19, 0.01547616, 18.10336848, 0.81178629, 0.17973234 
20, 0.01476269, 18.30834601, 0.81391633, 0.18974230 
21, 0.01409555, 18.50917961, 0.81641185, 0.18422931 
22, 0.01339191, 18.73157353, 0.82045996, 0.18346362 
23, 0.01288681, 18.89854728, 0.82155180, 0.17932865 
24, 0.01270514, 18.96020615, 0.82050627, 0.18938828 
25, 0.01265232, 18.97829774, 0.82236838, 0.18313421 
26, 0.01284194, 18.91369523, 0.82382601, 0.18198949 
27, 0.01344710, 18.71371236, 0.82371140, 0.18288718 
28, 0.01402017, 18.53246862, 0.82584059, 0.17865336 
29, 0.01456451, 18.36704026, 0.82184660, 0.19240972 
30, 0.01475891, 18.30945577, 0.82284367, 0.18111369 
31, 0.01444747, 18.40208221, 0.82171655, 0.18330176 
32, 0.01373337, 18.62222872, 0.82302481, 0.17903386 
33, 0.01308444, 18.83244967, 0.82213718, 0.18237627 
34, 0.01245016, 19.04824921, 0.82200104, 0.17206271 
35, 0.01215235, 19.15339779, 0.81961972, 0.17555560 
36, 0.01185813, 19.25983695, 0.81810451, 0.18703791 
37, 0.01167531, 19.32731429, 0.81712651, 0.18097343 
38, 0.01199503, 19.20998506, 0.81279165, 0.18947829 
39, 0.01203326, 19.19616751, 0.81023550, 0.19411148 
40, 0.01219350, 19.13871781, 0.80929899, 0.19796914 
41, 0.01239999, 19.06578596, 0.80836362, 0.19205880 
42, 0.01297959, 18.86739170, 0.80459952, 0.18962386 
43, 0.01345580, 18.71090333, 0.80115539, 0.19825499 
44, 0.01363329, 18.65399228, 0.80045104, 0.19730985 
45, 0.01369126, 18.63556508, 0.80323184, 0.19242510 
46, 0.01334095, 18.74813364, 0.80823606, 0.19048193 
47, 0.01306514, 18.83885971, 0.80979687, 0.19621873 
48, 0.01276827, 18.93867990, 0.81256962, 0.19351304 
49, 0.01230489, 19.09922167, 0.81341445, 0.19292052 
50, 0.01217186, 19.14642891, 0.81306309, 0.19533220 
51, 0.01220815, 19.13350118, 0.81130213, 0.19582912 
52, 0.01205589, 19.18800700, 0.81566322, 0.18893784 
53, 0.01144645, 19.41329153, 0.81757629, 0.18752384 
54, 0.01134885, 19.45048319, 0.81584704, 0.18765493 
55, 0.01126611, 19.48226102, 0.81996816, 0.18312381 
56, 0.01111194, 19.54210102, 0.82233673, 0.18354288 
57, 0.01102440, 19.57644978, 0.82604647, 0.17964123 
58, 0.01107529, 19.55645006, 0.83009851, 0.17108941 
59, 0.01119746, 19.50880593, 0.83236402, 0.16501942 
60, 0.01141977, 19.42342525, 0.83719003, 0.16635796 
61, 0.01124903, 19.48884781, 0.84247082, 0.16545913 
62, 0.01158263, 19.36192896, 0.84435087, 0.16175628 
63, 0.01145295, 19.41082615, 0.84776646, 0.15542161 
64, 0.01083172, 19.65302530, 0.85274374, 0.15315536 
65, 0.01051655, 19.78126770, 0.85647249, 0.15265207 
66, 0.00998648, 20.00587614, 0.86100608, 0.14824638 
67, 0.01016118, 19.93055853, 0.86514747, 0.15081616 
68, 0.01050647, 19.78543378, 0.86563087, 0.15339543 
69, 0.01099431, 19.58832039, 0.87095636, 0.14614064 
70, 0.01186835, 19.25609613, 0.87411821, 0.14854774 
71, 0.01186469, 19.25743737, 0.87514496, 0.14791101 
72, 0.01078202, 19.67299898, 0.87259346, 0.14544024 
73, 0.01024821, 19.89351854, 0.87022889, 0.14755157 
74, 0.01002855, 19.98761798, 0.87040377, 0.14284560 
75, 0.01064403, 19.72893765, 0.86645967, 0.15364595 
76, 0.01064544, 19.72836504, 0.86577582, 0.15488790 
77, 0.01144257, 19.41476492, 0.86497802, 0.16065489 
78, 0.01224994, 19.11866201, 0.86629027, 0.15069611 
79, 0.01350270, 18.69579463, 0.86041790, 0.15511903 
80, 0.01356055, 18.67722537, 0.85831553, 0.15445657 
81, 0.01313138, 18.81689690, 0.85680789, 0.15028536 
82, 0.01256038, 19.00997361, 0.85546911, 0.15478979 
83, 0.01243938, 19.05201251, 0.85430652, 0.15299250 
84, 0.01267685, 18.96988746, 0.85246402, 0.15280181 
85, 0.01378202, 18.60687221, 0.85261482, 0.15792215 
86, 0.01370329, 18.63175139, 0.85470575, 0.15251869 
87, 0.01315734, 18.80832002, 0.85721743, 0.14557692 
88, 0.01341559, 18.72390195, 0.85445023, 0.14540187 
89, 0.01345827, 18.71010835, 0.85489225, 0.15143493 
90, 0.01293469, 18.88243933, 0.85812581, 0.14495349 
91, 0.01257600, 19.00457445, 0.86051792, 0.13757715 
92, 0.01242093, 19.05845985, 0.85968965, 0.13726579 
93, 0.01183577, 19.26803595, 0.86223972, 0.14007644 
94, 0.01102742, 19.57526197, 0.86519784, 0.13805339 
95, 0.01018010, 19.92247962, 0.86881548, 0.13450207 
96, 0.00942288, 20.25816226, 0.87336415, 0.12606053 
97, 0.00857640, 20.66695178, 0.87845325, 0.12893029 
98, 0.00775833, 21.10231564, 0.88457525, 0.12429862 
99, 0.00772869, 21.11894096, 0.88505739, 0.12742402 
100, 0.00742854, 21.29096539, 0.88575721, 0.12578569 
101, 0.00660968, 21.79819618, 0.88707763, 0.11969474 
102, 0.00588081, 22.30563069, 0.88686490, 0.11624265 
103, 0.00619633, 22.07865603, 0.88474232, 0.11810836 
104, 0.00692748, 21.59424808, 0.87993783, 0.11566025 
105, 0.00818666, 20.86893406, 0.87420684, 0.11984289 
106, 0.00855373, 20.67844399, 0.87032014, 0.12813890 
107, 0.00919910, 20.36254590, 0.86735338, 0.11966246 
108, 0.01001583, 19.99313119, 0.86491197, 0.12307193 
109, 0.01014032, 19.93948367, 0.86507475, 0.12350696 
110, 0.00976226, 20.10449624, 0.86551857, 0.12485441 
111, 0.00943818, 20.25111685, 0.86792719, 0.12494504 
112, 0.00933913, 20.29693773, 0.86995703, 0.13751687 
113, 0.00919481, 20.36457419, 0.87206453, 0.13891491 
114, 0.00890573, 20.50330647, 0.87205917, 0.13530302 
115, 0.00922388, 20.35086300, 0.86991215, 0.13735649 
116, 0.00903945, 20.43857838, 0.87221044, 0.12663856 
117, 0.00879594, 20.55717680, 0.87384439, 0.12648040 
118, 0.00922971, 20.34811754, 0.87557364, 0.13054238 
119, 0.01005448, 19.97640413, 0.87900645, 0.12990299 
120, 0.01095681, 19.60315949, 0.88233370, 0.13330574 
121, 0.01154817, 19.37487011, 0.88452721, 0.12988439 
122, 0.01091502, 19.61975482, 0.88869590, 0.12543006 
123, 0.01055005, 19.76745364, 0.89023739, 0.12292673 
124, 0.01014110, 19.93915103, 0.89144003, 0.12277345 
125, 0.01017593, 19.92425954, 0.89108086, 0.11951944 
126, 0.01045896, 19.80511412, 0.89044571, 0.12448291 
127, 0.01070446, 19.70435403, 0.88707489, 0.12382014 
128, 0.01153787, 19.37874484, 0.88095880, 0.13343094 
129, 0.01206099, 19.18617090, 0.87795180, 0.13908188 
130, 0.01186684, 19.25664757, 0.87345088, 0.13206762 
131, 0.01124595, 19.49004027, 0.86813229, 0.12989309 
132, 0.01044065, 19.81272601, 0.86346376, 0.12929940 
133, 0.00983256, 20.07333473, 0.86031681, 0.13428608 
134, 0.00981241, 20.08224397, 0.85738951, 0.13271743 
135, 0.01009522, 19.95884210, 0.85192335, 0.13956371 
136, 0.01077410, 19.67618877, 0.84594476, 0.14650503 
137, 0.01090131, 19.62521254, 0.84614289, 0.15509167 
138, 0.01138121, 19.43811747, 0.83923006, 0.16422749 
139, 0.01177522, 19.29031149, 0.83544445, 0.16224948 
140, 0.01227486, 19.10983405, 0.83010358, 0.16658562 
141, 0.01255915, 19.01039902, 0.82514006, 0.17853302 
142, 0.01248301, 19.03680614, 0.82098377, 0.17261243 
143, 0.01254632, 19.01483592, 0.81827760, 0.17103508 
144, 0.01243162, 19.05472317, 0.81635535, 0.16489065 
145, 0.01231754, 19.09476113, 0.81855500, 0.16035689 
146, 0.01195620, 19.22406660, 0.82101774, 0.17344695 
147, 0.01145941, 19.40837664, 0.82334882, 0.18240547 
148, 0.01133864, 19.45439211, 0.82405102, 0.18628940 
149, 0.01129577, 19.47084219, 0.82009083, 0.18931742 
150, 0.01170790, 19.31521165, 0.81592774, 0.18880250 
151, 0.01220599, 19.13426923, 0.81139398, 0.19630881 
152, 0.01236083, 19.07952404, 0.81406945, 0.19726834 
153, 0.01250532, 19.02905129, 0.81188732, 0.19785948 
154, 0.01243070, 19.05504463, 0.81154215, 0.19196829 
155, 0.01281358, 18.92329476, 0.81045258, 0.19378212 
156, 0.01301958, 18.85402888, 0.80862820, 0.19982639 
157, 0.01289576, 18.89552928, 0.80883753, 0.19900754 
158, 0.01276776, 18.93885382, 0.80982983, 0.19523264 
159, 0.01223808, 19.12286558, 0.81568474, 0.19510995 
160, 0.01241667, 19.05994760, 0.81901354, 0.19658324 
161, 0.01267828, 18.96939709, 0.81784040, 0.19418806 
162, 0.01265172, 18.97850585, 0.81955665, 0.19315773 
163, 0.01272041, 18.95499057, 0.82151920, 0.19204338 
164, 0.01305228, 18.84313678, 0.81989205, 0.18552151 
165, 0.01327616, 18.76927439, 0.82032627, 0.18427047 
166, 0.01356484, 18.67585326, 0.82192403, 0.19081007 
167, 0.01376546, 18.61209393, 0.82412076, 0.19020067 
168, 0.01414283, 18.49463767, 0.82199383, 0.18524535 
169, 0.01474913, 18.31233562, 0.82298774, 0.18661812 
170, 0.01454933, 18.37157037, 0.82491857, 0.18424708 
171, 0.01366240, 18.64473072, 0.82547188, 0.18230398 
172, 0.01309421, 18.82920758, 0.82148826, 0.18670727 
173, 0.01225675, 19.11624774, 0.82471800, 0.19039512 
174, 0.01153812, 19.37864984, 0.82727987, 0.18782927 
175, 0.01149331, 19.39555007, 0.82566983, 0.18576434 
176, 0.01169385, 19.32042337, 0.82449704, 0.18430370 
177, 0.01233639, 19.08811939, 0.82344311, 0.18084005 
178, 0.01309975, 18.82736852, 0.82109636, 0.18141925 
179, 0.01378124, 18.60711697, 0.82078409, 0.18654090 
180, 0.01457742, 18.36319321, 0.82218456, 0.17259210 
181, 0.01541902, 18.11943350, 0.81974250, 0.17063946 
182, 0.01554978, 18.08275677, 0.81681430, 0.17503497 
183, 0.01574556, 18.02841897, 0.81342703, 0.17577948 
184, 0.01600095, 17.95854213, 0.80990869, 0.18123147 
185, 0.01640064, 17.85139084, 0.80642629, 0.18683991 
186, 0.01681988, 17.74177170, 0.80513167, 0.19070950 
187, 0.01705843, 17.68060841, 0.80187291, 0.19475552 
188, 0.01711784, 17.66550960, 0.79781979, 0.19911948 
189, 0.01697315, 17.70237623, 0.79578638, 0.19586377 
190, 0.01690193, 17.72063633, 0.79489696, 0.19948398 
191, 0.01675193, 17.75935099, 0.79203868, 0.21152970 
192, 0.01651874, 17.82022985, 0.78994703, 0.20823744 
193, 0.01621948, 17.89963174, 0.79036081, 0.21095547 
194, 0.01585267, 17.99897601, 0.79022950, 0.20545483 
195, 0.01516474, 18.19165154, 0.78565598, 0.20556229 
196, 0.01475265, 18.31130052, 0.78448284, 0.21988422 
197, 0.01450081, 18.38607854, 0.78232181, 0.22408965 
198, 0.01388809, 18.57357597, 0.78498620, 0.23077378 
199, 0.01371915, 18.62672829, 0.78275347, 0.23534526 
AVERAGES: 0.0125, 19.117, 0.832, 0.172
